true_pos[mm],voltage_ratio[-](de=f0 mm),voltage_ratio[-](de=f2 mm),voltage_ratio[-](de=f4 mm),voltage_ratio[-](de=f6 mm),voltage_ratio[-](de=f8 mm),voltage_ratio[-](de=f10 mm)
-0.3,-0.99721,-0.99717,-0.99701,-0.99667,-0.99604,-0.99481
-0.2975,-0.99711,-0.99705,-0.99689,-0.99655,-0.9959,-0.99465
-0.295,-0.99697,-0.99692,-0.99674,-0.99639,-0.99572,-0.99443
-0.2925,-0.9968,-0.99674,-0.99655,-0.99617,-0.99546,-0.99409
-0.29,-0.99658,-0.99651,-0.99629,-0.99587,-0.99509,-0.9936
-0.2875,-0.99628,-0.9962,-0.99595,-0.99547,-0.99459,-0.99292
-0.285,-0.99592,-0.99583,-0.99553,-0.99498,-0.99398,-0.99206
-0.2825,-0.99551,-0.99539,-0.99505,-0.99441,-0.99325,-0.99104
-0.28,-0.99505,-0.99492,-0.99451,-0.99378,-0.99244,-0.9899
-0.2775,-0.99458,-0.99442,-0.99396,-0.99312,-0.9916,-0.98871
-0.275,-0.99411,-0.99394,-0.99342,-0.99247,-0.99076,-0.98751
-0.2725,-0.99366,-0.99347,-0.99289,-0.99185,-0.98996,-0.98636
-0.27,-0.99326,-0.99305,-0.99242,-0.99128,-0.98923,-0.98531
-0.2675,-0.9929,-0.99267,-0.992,-0.99078,-0.98859,-0.98437
-0.265,-0.99259,-0.99235,-0.99164,-0.99035,-0.98803,-0.98356
-0.2625,-0.99232,-0.99207,-0.99132,-0.98997,-0.98754,-0.98286
-0.26,-0.99208,-0.99182,-0.99104,-0.98963,-0.9871,-0.98222
-0.2575,-0.99184,-0.99157,-0.99076,-0.98929,-0.98667,-0.98159
-0.255,-0.99161,-0.99133,-0.99048,-0.98895,-0.98621,-0.98094
-0.2525,-0.99134,-0.99105,-0.99016,-0.98856,-0.98569,-0.98019
-0.25,-0.99104,-0.99074,-0.98981,-0.98811,-0.98508,-0.9793
-0.2475,-0.99071,-0.99039,-0.9894,-0.9876,-0.98438,-0.97825
-0.245,-0.99033,-0.98999,-0.98894,-0.98701,-0.98356,-0.97701
-0.2425,-0.98992,-0.98956,-0.98844,-0.98637,-0.98265,-0.97561
-0.24,-0.9895,-0.98911,-0.98792,-0.98569,-0.98167,-0.97407
-0.2375,-0.98907,-0.98866,-0.98739,-0.98499,-0.98065,-0.97242
-0.235,-0.98866,-0.98823,-0.98687,-0.98431,-0.97963,-0.97074
-0.2325,-0.98828,-0.98782,-0.98639,-0.98366,-0.97864,-0.96906
-0.23,-0.98793,-0.98745,-0.98595,-0.98306,-0.9777,-0.96742
-0.2275,-0.98763,-0.98713,-0.98556,-0.98252,-0.97683,-0.96585
-0.225,-0.98737,-0.98685,-0.98521,-0.98203,-0.97602,-0.96437
-0.2225,-0.98714,-0.9866,-0.98491,-0.98158,-0.97527,-0.96295
-0.22,-0.98692,-0.98637,-0.98461,-0.98115,-0.97454,-0.96157
-0.2175,-0.98672,-0.98615,-0.98433,-0.98073,-0.97381,-0.9602
-0.215,-0.98649,-0.98591,-0.98403,-0.98028,-0.97303,-0.95876
-0.2125,-0.98624,-0.98564,-0.98369,-0.97977,-0.97217,-0.9572
-0.21,-0.98596,-0.98534,-0.9833,-0.97921,-0.97121,-0.95549
-0.2075,-0.98564,-0.98499,-0.98287,-0.97856,-0.97012,-0.95356
-0.205,-0.98527,-0.98459,-0.98236,-0.97782,-0.96889,-0.95139
-0.2025,-0.98485,-0.98414,-0.98181,-0.97701,-0.96751,-0.94897
-0.2,-0.98441,-0.98366,-0.98121,-0.97612,-0.96601,-0.9463
-0.1975,-0.98394,-0.98315,-0.98057,-0.97518,-0.9644,-0.9434
-0.195,-0.98345,-0.98263,-0.97992,-0.9742,-0.9627,-0.94032
-0.1925,-0.98297,-0.98211,-0.97925,-0.97321,-0.96095,-0.93708
-0.19,-0.98249,-0.98159,-0.97859,-0.97219,-0.95914,-0.93371
-0.1875,-0.98202,-0.98108,-0.97793,-0.97118,-0.95731,-0.93025
-0.185,-0.98156,-0.98058,-0.97729,-0.97016,-0.95545,-0.92671
-0.1825,-0.98111,-0.9801,-0.97665,-0.96915,-0.95356,-0.92311
-0.18,-0.98068,-0.97962,-0.97601,-0.96811,-0.95162,-0.91943
-0.1775,-0.98025,-0.97914,-0.97538,-0.96706,-0.94962,-0.91565
-0.175,-0.97981,-0.97866,-0.97472,-0.96595,-0.94753,-0.91173
-0.1725,-0.97936,-0.97816,-0.97403,-0.96479,-0.94531,-0.90764
-0.17,-0.97889,-0.97764,-0.97332,-0.96356,-0.94295,-0.90333
-0.1675,-0.9784,-0.9771,-0.97256,-0.96224,-0.94042,-0.89877
-0.165,-0.97789,-0.97652,-0.97175,-0.96083,-0.93771,-0.89391
-0.1625,-0.97734,-0.97592,-0.97089,-0.95932,-0.93479,-0.88872
-0.16,-0.97676,-0.97526,-0.96997,-0.9577,-0.93165,-0.88318
-0.1575,-0.97614,-0.97458,-0.969,-0.95597,-0.9283,-0.87728
-0.155,-0.97549,-0.97385,-0.96796,-0.95411,-0.92471,-0.87102
-0.1525,-0.97481,-0.97308,-0.96685,-0.95214,-0.92089,-0.86439
-0.15,-0.97409,-0.97227,-0.96568,-0.95002,-0.91682,-0.85739
-0.1475,-0.97335,-0.97143,-0.96444,-0.94777,-0.91251,-0.85003
-0.145,-0.97259,-0.97056,-0.96315,-0.94538,-0.90793,-0.84231
-0.1425,-0.97181,-0.96967,-0.96179,-0.94284,-0.90308,-0.83424
-0.14,-0.97103,-0.96876,-0.96039,-0.94016,-0.89794,-0.82581
-0.1375,-0.97025,-0.96786,-0.95894,-0.93732,-0.89252,-0.81703
-0.135,-0.96948,-0.96695,-0.95745,-0.93433,-0.88678,-0.80789
-0.1325,-0.96872,-0.96604,-0.95592,-0.9312,-0.88074,-0.79839
-0.13,-0.96796,-0.96513,-0.95435,-0.92791,-0.87438,-0.78854
-0.1275,-0.9672,-0.96422,-0.95274,-0.92446,-0.86771,-0.77833
-0.125,-0.96643,-0.96328,-0.95106,-0.92083,-0.8607,-0.76777
-0.1225,-0.96562,-0.96229,-0.9493,-0.917,-0.85335,-0.75685
-0.12,-0.96474,-0.96123,-0.9474,-0.91293,-0.84562,-0.74558
-0.1175,-0.96376,-0.96005,-0.94533,-0.90857,-0.8375,-0.73395
-0.115,-0.96267,-0.95873,-0.94304,-0.90386,-0.82894,-0.72197
-0.1125,-0.96144,-0.95724,-0.94048,-0.89874,-0.81988,-0.7096
-0.11,-0.96005,-0.95556,-0.93761,-0.89313,-0.81027,-0.69682
-0.1075,-0.95852,-0.95369,-0.93439,-0.88697,-0.80005,-0.68362
-0.105,-0.95685,-0.95164,-0.93081,-0.8802,-0.78916,-0.66998
-0.1025,-0.95508,-0.94943,-0.92687,-0.87279,-0.77755,-0.65586
-0.1,-0.95324,-0.9471,-0.92259,-0.86471,-0.76517,-0.64125
-0.0975,-0.9514,-0.9447,-0.918,-0.85597,-0.75202,-0.62615
-0.095,-0.94959,-0.94228,-0.91314,-0.84659,-0.7381,-0.61057
-0.0925,-0.94785,-0.93989,-0.90807,-0.8366,-0.72343,-0.59453
-0.09,-0.9462,-0.93754,-0.90282,-0.82607,-0.70809,-0.57808
-0.0875,-0.94465,-0.93525,-0.89742,-0.81504,-0.69212,-0.56129
-0.085,-0.94316,-0.93298,-0.89187,-0.80356,-0.67562,-0.54423
-0.0825,-0.94168,-0.93068,-0.88611,-0.79166,-0.65869,-0.527
-0.08,-0.94013,-0.92825,-0.88008,-0.77934,-0.6414,-0.50968
-0.0775,-0.93839,-0.92557,-0.87363,-0.76655,-0.62382,-0.49236
-0.075,-0.93638,-0.9225,-0.86663,-0.75324,-0.60601,-0.47513
-0.0725,-0.934,-0.91891,-0.85888,-0.73928,-0.58799,-0.45807
-0.07,-0.93118,-0.91466,-0.85018,-0.72455,-0.56977,-0.4412
-0.0675,-0.9279,-0.90966,-0.84034,-0.70889,-0.5513,-0.42458
-0.065,-0.92418,-0.90386,-0.82919,-0.69215,-0.53256,-0.4082
-0.0625,-0.9201,-0.89726,-0.8166,-0.67417,-0.51348,-0.39206
-0.06,-0.9158,-0.88992,-0.8025,-0.65485,-0.494,-0.37614
-0.0575,-0.91142,-0.88192,-0.78686,-0.63411,-0.47408,-0.36042
-0.055,-0.90714,-0.87341,-0.76973,-0.61193,-0.45368,-0.34485
-0.0525,-0.90311,-0.86452,-0.75121,-0.58836,-0.4328,-0.32942
-0.05,-0.8994,-0.85534,-0.73142,-0.5635,-0.41146,-0.3141
-0.0475,-0.896,-0.84593,-0.71053,-0.53751,-0.38973,-0.29886
-0.045,-0.89271,-0.83622,-0.68868,-0.51059,-0.36768,-0.2837
-0.0425,-0.88918,-0.82603,-0.66599,-0.48296,-0.34544,-0.26861
-0.04,-0.88488,-0.81501,-0.6425,-0.45487,-0.32313,-0.2536
-0.0375,-0.87902,-0.80263,-0.61819,-0.42651,-0.30086,-0.23865
-0.035,-0.87066,-0.78824,-0.59293,-0.3981,-0.27878,-0.22375
-0.0325,-0.85868,-0.77101,-0.56651,-0.36975,-0.25698,-0.20888
-0.03,-0.84188,-0.75003,-0.53863,-0.34157,-0.23553,-0.19401
-0.0275,-0.819,-0.72433,-0.50892,-0.31358,-0.21448,-0.17909
-0.025,-0.78882,-0.69296,-0.477,-0.28575,-0.19384,-0.16407
-0.0225,-0.75025,-0.65507,-0.44247,-0.25802,-0.17361,-0.14891
-0.02,-0.70242,-0.60997,-0.405,-0.2303,-0.15373,-0.13354
-0.0175,-0.64475,-0.55717,-0.36433,-0.20248,-0.13416,-0.11791
-0.015,-0.57701,-0.4965,-0.32035,-0.17446,-0.11483,-0.102
-0.0125,-0.4994,-0.42813,-0.27309,-0.14618,-0.095672,-0.085784
-0.01,-0.41255,-0.35255,-0.22276,-0.11758,-0.076636,-0.069281
-0.0075,-0.31756,-0.27066,-0.16975,-0.088687,-0.057676,-0.052522
-0.005,-0.21594,-0.18367,-0.11459,-0.059534,-0.038762,-0.035564
-0.0025,-0.10957,-0.093091,-0.057984,-0.030209,-0.01988,-0.018488
0,-0.00062329,-0.00063927,-0.00069424,-0.00080773,-0.0010121,-0.0013739
0.0025,0.10854,0.091824,0.056453,0.028559,0.017858,0.015702
0.005,0.21552,0.18244,0.11266,0.057806,0.036767,0.032684
0.0075,0.318,0.2694,0.16717,0.086839,0.055724,0.049484
0.01,0.41388,0.35114,0.21934,0.11561,0.07476,0.066044
0.0125,0.50143,0.42633,0.26868,0.14411,0.093921,0.082327
0.015,0.57934,0.49404,0.31488,0.17237,0.11326,0.098316
0.0175,0.64684,0.55373,0.35782,0.20046,0.13285,0.11403
0.02,0.70366,0.60527,0.39754,0.22848,0.15274,0.12949
0.0225,0.75007,0.64891,0.43424,0.25653,0.17301,0.14474
0.025,0.78676,0.68523,0.46822,0.28472,0.19369,0.15985
0.0275,0.8148,0.71508,0.49988,0.31313,0.21481,0.17486
0.03,0.83548,0.73944,0.52961,0.34178,0.23635,0.18983
0.0325,0.85023,0.75937,0.5578,0.37066,0.25827,0.20479
0.035,0.86048,0.77593,0.58478,0.39968,0.28051,0.21979
0.0375,0.86756,0.79005,0.61078,0.42872,0.30296,0.23484
0.04,0.87264,0.80255,0.63595,0.45758,0.3255,0.24997
0.0425,0.87668,0.81405,0.66033,0.48604,0.348,0.26516
0.045,0.88036,0.82497,0.68387,0.51386,0.37033,0.28043
0.0475,0.88415,0.83556,0.70645,0.5408,0.39238,0.29579
0.05,0.8883,0.8459,0.72791,0.56663,0.41405,0.31124
0.0525,0.89284,0.85597,0.74807,0.59119,0.43529,0.3268
0.055,0.89771,0.86564,0.76678,0.61435,0.45605,0.3425
0.0575,0.90274,0.87476,0.7839,0.63605,0.47635,0.35837
0.06,0.90773,0.88318,0.79938,0.65629,0.4962,0.37444
0.0625,0.91247,0.89076,0.8132,0.67512,0.51566,0.39075
0.065,0.91682,0.89744,0.82546,0.69268,0.5348,0.40731
0.0675,0.92066,0.90319,0.83627,0.7091,0.55366,0.42414
0.07,0.92396,0.90808,0.84581,0.72453,0.57229,0.44122
0.0725,0.92674,0.9122,0.85429,0.73915,0.59074,0.45853
0.075,0.92907,0.9157,0.86193,0.7531,0.60899,0.47602
0.0775,0.93106,0.91873,0.86893,0.7665,0.62703,0.49362
0.08,0.93283,0.92146,0.87548,0.77942,0.6448,0.51125
0.0825,0.93449,0.92402,0.88172,0.79192,0.66224,0.52882
0.085,0.93615,0.92654,0.88774,0.80398,0.67925,0.54622
0.0875,0.93789,0.92908,0.89359,0.8156,0.69575,0.56336
0.09,0.93974,0.9317,0.89929,0.82671,0.71163,0.58017
0.0925,0.94171,0.93438,0.90482,0.83727,0.72682,0.59658
0.095,0.94377,0.9371,0.91012,0.84721,0.74126,0.61252
0.0975,0.94588,0.93981,0.91516,0.85648,0.75492,0.62799
0.1,0.94799,0.94246,0.91986,0.86506,0.76777,0.64294
0.1025,0.95004,0.94498,0.92419,0.87294,0.77983,0.65741
0.105,0.95199,0.94733,0.92814,0.88013,0.79114,0.6714
0.1075,0.95378,0.94947,0.93169,0.88667,0.80175,0.68492
0.11,0.95539,0.95139,0.93485,0.89262,0.81172,0.69802
0.1125,0.95683,0.9531,0.93767,0.89805,0.82111,0.71071
0.115,0.9581,0.9546,0.94018,0.90303,0.82998,0.72302
0.1175,0.95922,0.95594,0.94244,0.90762,0.83839,0.73495
0.12,0.96024,0.95714,0.9445,0.91191,0.84639,0.74654
0.1225,0.96117,0.95825,0.94642,0.91593,0.854,0.75776
0.125,0.96205,0.9593,0.94823,0.91973,0.86126,0.76864
0.1275,0.9629,0.96032,0.94996,0.92334,0.86817,0.77915
0.13,0.96375,0.96132,0.95164,0.92679,0.87476,0.78932
0.1325,0.9646,0.96233,0.95328,0.93008,0.88102,0.79912
0.135,0.96547,0.96333,0.95488,0.9332,0.88696,0.80855
0.1375,0.96634,0.96433,0.95643,0.93617,0.89259,0.81762
0.14,0.96722,0.96534,0.95794,0.93898,0.89792,0.82633
0.1425,0.96809,0.96632,0.95939,0.94164,0.90295,0.83468
0.145,0.96895,0.96729,0.96078,0.94414,0.9077,0.84267
0.1475,0.96978,0.96821,0.9621,0.94649,0.91217,0.85029
0.15,0.97059,0.9691,0.96335,0.9487,0.91639,0.85754
0.1525,0.97135,0.96995,0.96453,0.95076,0.92036,0.86442
0.155,0.97208,0.97075,0.96564,0.9527,0.92408,0.87093
0.1575,0.97276,0.97151,0.96668,0.95451,0.92757,0.87706
0.16,0.97341,0.97222,0.96766,0.95621,0.93084,0.88283
0.1625,0.97402,0.97289,0.96858,0.95779,0.93389,0.88825
0.165,0.97461,0.97353,0.96945,0.95927,0.93673,0.89333
0.1675,0.97515,0.97414,0.97026,0.96066,0.93938,0.8981
0.17,0.97568,0.97471,0.97104,0.96196,0.94186,0.90261
0.1725,0.97619,0.97527,0.97178,0.96319,0.94419,0.9069
0.175,0.9767,0.97582,0.9725,0.96437,0.9464,0.911
0.1775,0.9772,0.97636,0.97321,0.9655,0.94851,0.91496
0.18,0.9777,0.9769,0.9739,0.9666,0.95055,0.9188
0.1825,0.97822,0.97746,0.97461,0.96769,0.95254,0.92256
0.185,0.97875,0.97802,0.97531,0.96877,0.95449,0.92624
0.1875,0.97929,0.9786,0.97603,0.96985,0.95641,0.92983
0.19,0.97984,0.97919,0.97675,0.97092,0.95829,0.93333
0.1925,0.98039,0.97977,0.97747,0.97197,0.96012,0.93669
0.195,0.98093,0.98035,0.97817,0.97299,0.96188,0.93988
0.1975,0.98146,0.98091,0.97885,0.97397,0.96354,0.94287
0.2,0.98197,0.98144,0.9795,0.9749,0.9651,0.94563
0.2025,0.98243,0.98193,0.98008,0.97574,0.96652,0.94814
0.205,0.98284,0.98237,0.98062,0.97651,0.9678,0.95039
0.2075,0.9832,0.98275,0.98109,0.97718,0.96893,0.95239
0.21,0.98352,0.98309,0.9815,0.97778,0.96993,0.95418
0.2125,0.9838,0.98339,0.98186,0.9783,0.97082,0.9558
0.215,0.98405,0.98366,0.98219,0.97878,0.97164,0.95731
0.2175,0.98429,0.98391,0.9825,0.97924,0.97242,0.95876
0.22,0.98454,0.98418,0.98283,0.9797,0.97319,0.9602
0.2225,0.98482,0.98447,0.98317,0.98018,0.97399,0.96169
0.225,0.98513,0.98479,0.98355,0.98071,0.97484,0.96324
0.2275,0.98547,0.98515,0.98398,0.98128,0.97575,0.96487
0.23,0.98587,0.98557,0.98446,0.98192,0.97674,0.96657
0.2325,0.98631,0.98603,0.98499,0.98261,0.97777,0.96831
0.235,0.98678,0.98652,0.98555,0.98333,0.97883,0.97006
0.2375,0.98726,0.98702,0.98611,0.98405,0.97988,0.97175
0.24,0.98774,0.98751,0.98668,0.98476,0.98089,0.97334
0.2425,0.9882,0.98799,0.98721,0.98543,0.98183,0.97478
0.245,0.98862,0.98843,0.9877,0.98604,0.98268,0.97605
0.2475,0.989,0.98881,0.98813,0.98658,0.98341,0.97714
0.25,0.98933,0.98916,0.98852,0.98704,0.98403,0.97805
0.2525,0.98963,0.98946,0.98885,0.98745,0.98457,0.97883
0.255,0.9899,0.98974,0.98916,0.98781,0.98505,0.97951
0.2575,0.99016,0.99001,0.98945,0.98816,0.9855,0.98015
0.26,0.99044,0.9903,0.98976,0.98853,0.98596,0.98082
0.2625,0.99075,0.99062,0.99011,0.98893,0.98648,0.98156
0.265,0.9911,0.99098,0.99051,0.98939,0.98706,0.98241
0.2675,0.99151,0.9914,0.99097,0.98992,0.98774,0.98338
0.27,0.99197,0.99187,0.99148,0.99052,0.98849,0.98447
0.2725,0.99248,0.99239,0.99204,0.99117,0.98933,0.98566
0.275,0.99301,0.99294,0.99264,0.99186,0.9902,0.98691
0.2775,0.99355,0.99349,0.99324,0.99255,0.99107,0.98814
0.28,0.99406,0.99402,0.99381,0.99321,0.99191,0.98932
0.2825,0.99453,0.9945,0.99433,0.99381,0.99266,0.99037
0.285,0.99493,0.99491,0.99477,0.99432,0.9933,0.99125
0.2875,0.99526,0.99525,0.99514,0.99474,0.99381,0.99195
0.29,0.99552,0.99551,0.99542,0.99505,0.99419,0.99246
0.2925,0.99571,0.99571,0.99562,0.99528,0.99446,0.99281
0.295,0.99586,0.99586,0.99578,0.99545,0.99465,0.99304
0.2975,0.99599,0.996,0.99592,0.99559,0.9948,0.99322
0.3,0.99599,0.996,0.99592,0.99559,0.9948,0.99322
